#nu [Hz]            Flux [mJy]          
3.3e+08 2.60543e+27
3.83566e+08 2.73754e+27
4.45828e+08 2.88074e+27
5.18196e+08 3.03265e+27
6.02311e+08 3.19125e+27
7.00079e+08 3.35653e+27
8.13718e+08 3.529e+27
9.45802e+08 3.70935e+27
1.09933e+09 3.89837e+27
1.27777e+09 4.09373e+27
1.48518e+09 4.2955e+27
1.72626e+09 4.50495e+27
2.00647e+09 4.72121e+27
2.33217e+09 4.94542e+27
2.71073e+09 5.18066e+27
3.15075e+09 5.42872e+27
3.66218e+09 5.69146e+27
4.25664e+09 5.97209e+27
4.94759e+09 6.26973e+27
5.75069e+09 6.58207e+27
6.68416e+09 6.90761e+27
7.76915e+09 7.2448e+27
9.03025e+09 7.58621e+27
1.04961e+10 7.92497e+27
1.21998e+10 8.26223e+27
1.41801e+10 8.60735e+27
1.64819e+10 8.97067e+27
1.91572e+10 9.34807e+27
2.22669e+10 9.73683e+27
2.58813e+10 1.01317e+28
3.00824e+10 1.05272e+28
3.49655e+10 1.0922e+28
4.06412e+10 1.13115e+28
4.72381e+10 1.16999e+28
5.4906e+10 1.20895e+28
6.38184e+10 1.2468e+28
7.41776e+10 1.28151e+28
8.62183e+10 1.31248e+28
1.00213e+11 1.34051e+28
1.1648e+11 1.36511e+28
1.35388e+11 1.38481e+28
1.57364e+11 1.39876e+28
1.82908e+11 1.40569e+28
2.12598e+11 1.40423e+28
2.47107e+11 1.3929e+28
2.87219e+11 1.37219e+28
3.33841e+11 1.34261e+28
3.8803e+11 1.30219e+28
4.51016e+11 1.25165e+28
5.24226e+11 1.18813e+28
6.0932e+11 1.11178e+28
7.08227e+11 1.03372e+28
8.23188e+11 9.48699e+27
9.5681e+11 8.57595e+27
1.11212e+12 7.65381e+27
1.29264e+12 6.80788e+27
1.50247e+12 5.95575e+27
1.74635e+12 5.19646e+27
2.02983e+12 4.47447e+27
2.35931e+12 3.86212e+27
2.74228e+12 3.33047e+27
3.18741e+12 2.86426e+27
3.7048e+12 2.46034e+27
4.30618e+12 2.10231e+27
5.00517e+12 1.80288e+27
5.81762e+12 1.55778e+27
6.76195e+12 1.33259e+27
7.85956e+12 1.14134e+27
9.13535e+12 9.77771e+26
1.06182e+13 8.44306e+26
1.23418e+13 7.26194e+26
1.43451e+13 6.20858e+26
1.66737e+13 5.31035e+26
1.93802e+13 4.56385e+26
2.2526e+13 3.94045e+26
2.61825e+13 3.38081e+26
3.04325e+13 2.88832e+26
3.53724e+13 2.47489e+26
4.11142e+13 2.13015e+26
4.77879e+13 1.83665e+26
5.5545e+13 1.57417e+26
6.45611e+13 1.35384e+26
7.50409e+13 1.15344e+26
8.72217e+13 9.93732e+25
1.0138e+14 8.55769e+25
1.17836e+14 7.32445e+25
1.36963e+14 6.25973e+25
1.59196e+14 5.37468e+25
1.85037e+14 4.63601e+25
2.15072e+14 3.9835e+25
2.49983e+14 3.40511e+25
2.90561e+14 2.9143e+25
3.37726e+14 2.5089e+25
3.92546e+14 2.16104e+25
4.56265e+14 1.85163e+25
5.30327e+14 1.58232e+25
6.16411e+14 1.35864e+25
7.16469e+14 1.17205e+25
8.32768e+14 1.0048e+25
9.67945e+14 8.58761e+24
1.12506e+15 7.36892e+24
1.30769e+15 6.35471e+24
1.51995e+15 5.44476e+24
1.76668e+15 4.65411e+24
2.05345e+15 4.00299e+24
2.38677e+15 3.44014e+24
2.7742e+15 2.94636e+24
3.22451e+15 2.5261e+24
3.74792e+15 2.16941e+24
4.35629e+15 1.86174e+24
5.06342e+15 1.59539e+24
5.88532e+15 1.36866e+24
6.84064e+15 1.17451e+24
7.95103e+15 1.00743e+24
9.24166e+15 8.6307e+23
1.07418e+16 7.4097e+23
1.24854e+16 6.35241e+23
1.45121e+16 5.44072e+23
1.68677e+16 4.66953e+23
1.96057e+16 4.00429e+23
2.27882e+16 3.42436e+23
2.64872e+16 2.93999e+23
3.07867e+16 2.52199e+23
3.57841e+16 2.15722e+23
4.15926e+16 1.84407e+23
4.83441e+16 1.58509e+23
5.61914e+16 1.35961e+23
6.53125e+16 1.15951e+23
7.59142e+16 9.89833e+22
8.82368e+16 8.52857e+22
1.0256e+17 7.30668e+22
1.19207e+17 6.22067e+22
1.38557e+17 5.30521e+22
1.61048e+17 4.55808e+22
1.8719e+17 3.91154e+22
2.17575e+17 3.33144e+22
2.52893e+17 2.83374e+22
2.93943e+17 2.42023e+22
3.41656e+17 2.07866e+22
3.97115e+17 1.7748e+22
4.61575e+17 1.507e+22
5.36499e+17 1.281e+22
6.23585e+17 1.09323e+22
7.24807e+17 9.35808e+21
8.4246e+17 7.96151e+21
9.7921e+17 6.73656e+21
1.13816e+18 5.71689e+21
1.32291e+18 4.86835e+21
1.53764e+18 4.14931e+21
1.78724e+18 3.51202e+21
2.07735e+18 2.95964e+21
2.41455e+18 2.5034e+21
2.80648e+18 2.12562e+21
3.26204e+18 1.7986e+21
3.79154e+18 1.51113e+21
4.40699e+18 1.26704e+21
5.12234e+18 1.06705e+21
5.95382e+18 8.99759e+20
6.92025e+18 7.52936e+20
8.04357e+18 6.26389e+20
9.34922e+18 5.21662e+20
1.08668e+19 4.36695e+20
1.26307e+19 3.64994e+20
1.4681e+19 2.98303e+20
1.7064e+19 2.45219e+20
1.98339e+19 2.02513e+20
2.30534e+19 1.65477e+20
2.67955e+19 1.33752e+20
3.1145e+19 1.08234e+20
3.62005e+19 8.71528e+19
4.20767e+19 6.92487e+19
4.89067e+19 5.4508e+19
5.68453e+19 4.25674e+19
6.60726e+19 3.28477e+19
7.67977e+19 2.48865e+19
8.92637e+19 1.85379e+19
1.03753e+20 1.35634e+19
1.20595e+20 9.6558e+18
1.4017e+20 6.69324e+18
1.62923e+20 4.50989e+18
1.89369e+20 2.90113e+18
2.20107e+20 1.78778e+18
2.55836e+20 1.03973e+18
2.97364e+20 5.65671e+17
3.45632e+20 2.84302e+17
4.01736e+20 1.3075e+17
4.66947e+20 5.45382e+16
5.42743e+20 2.0018e+16
6.30843e+20 6.42129e+15
7.33242e+20 1.74697e+15
8.52264e+20 3.91836e+14
9.90606e+20 7.01627e+13
1.1514e+21 9.67303e+12
1.3383e+21 9.82425e+11
1.55554e+21 7.00922e+10
1.80804e+21 3.30378e+09
2.10152e+21 9.61865e+07
2.44265e+21 1.62428e+06
2.83914e+21 14352.1
3.3e+21 59.0665
